x,y,z,speed,acceleration,curvature,curvature_change_rate,time,theta,gear,s,throttle,brake,steering
336863.115821, 3449336.48016, 14.9829559461, 0.00999999977648, 1.00045549037, 0.0, 0.0, 1600653221.3017, -2.65756978132, 1, 9.99999977648e-05, 16.0, 0.0, 0.0
336863.112989, 3449336.4786, 14.9829549456, 0.00999999977648, 1.05123101241, 0.0, 0.0, 1600653221.3115, -2.65761040071, 1, 0.00019999999553, 16.0, 0.0, 0.0
336863.110068, 3449336.47697, 14.9829590432, 0.00999999977648, 1.05707526479, 0.0, 0.0, 1600653221.3216, -2.65762567234, 1, 0.000299999993294, 16.0, 0.0, 0.0
336863.107058, 3449336.4753, 14.9829913367, 0.00999999977648, 1.16455067281, 0.0, 0.0, 1600653221.3315, -2.65763757224, 1, 0.000399999991059, 16.0, 0.0, 0.0
336863.103948, 3449336.47358, 14.9830249962, 0.0399999991059, 1.10160751507, 0.0, 0.0, 1600653221.3416, -2.65765282094, 1, 0.000799999982119, 16.0, 0.0, 0.0
336863.100741, 3449336.47181, 14.9830584312, 0.0399999991059, 1.08643631462, 0.0, 0.0, 1600653221.3515, -2.65767522599, 1, 0.00119999997318, 16.0, 0.0, 0.0
336863.097436, 3449336.46999, 14.9830820605, 0.0399999991059, 1.09067260177, 0.0, 0.0, 1600653221.3615, -2.65769358636, 1, 0.00159999996424, 16.0, 0.0, 0.0
336863.09403, 3449336.46812, 14.9830983314, 0.0399999991059, 1.18770871887, 0.0, 0.0, 1600653221.3715, -2.65767708849, 1, 0.0019999999553, 16.0, 0.0, 0.0
336863.090517, 3449336.46619, 14.9831120799, 0.0799999982119, 1.17783133023, 0.0, 0.0, 1600653221.3814, -2.65768387437, 1, 0.00279999993742, 16.0, 0.0, 0.0
336863.086895, 3449336.46422, 14.983127973, 0.0799999982119, 1.22002217316, 0.0, 0.0, 1600653221.3916, -2.65767165392, 1, 0.00359999991953, 16.0, 0.0, 0.0
336863.083168, 3449336.46219, 14.983136973, 0.0799999982119, 1.10235607585, 0.0, 0.0, 1600653221.4016, -2.65766459551, 1, 0.00439999990165, 16.0, 0.0, 0.0
336863.07934, 3449336.46011, 14.9831310877, 0.0799999982119, 1.21625516593, 0.0, 0.0, 1600653221.4116, -2.65766592992, 1, 0.00519999988377, 16.0, 0.0, 0.0
336863.075406, 3449336.45797, 14.9831218657, 0.119999997318, 1.23006049136, 0.0, 0.0, 1600653221.4229, -2.65767897776, 1, 0.00639999985695, 15.0, 0.0, 0.0
336863.071799, 3449336.45626, 14.9842525892, 0.119999997318, 1.13208464452, 0.0, 0.0, 1600653221.4318, -2.65756024808, 1, 0.00759999983013, 15.0, 0.0, 0.0
336863.067654, 3449336.45402, 14.9841888998, 0.119999997318, 1.10785446993, 0.0, 0.0, 1600653221.4416, -2.65757210793, 1, 0.0087999998033, 15.0, 0.0, 0.0
336863.063407, 3449336.45173, 14.9841213302, 0.119999997318, 1.17621998411, 0.0, 0.0, 1600653221.4515, -2.65757138989, 1, 0.00999999977648, 15.0, 0.0, 0.0
336863.059054, 3449336.44938, 14.9840623227, 0.119999997318, 1.15709752007, 0.0, 0.0, 1600653221.4616, -2.65757703628, 1, 0.0111999997497, 15.0, 0.0, 0.0
336863.054596, 3449336.44699, 14.9840142253, 0.119999997318, 1.12011485583, 0.0, 0.0, 1600653221.4718, -2.65756380281, 1, 0.0123999997228, 15.0, 0.0, 0.0
336863.050037, 3449336.44456, 14.9839681424, 0.119999997318, 1.12723527239, 0.0, 0.0, 1600653221.4817, -2.65756749637, 1, 0.013599999696, 15.0, 0.0, 0.0
336863.045377, 3449336.44208, 14.9839194237, 0.119999997318, 1.09757875813, 0.0, 0.0, 1600653221.4916, -2.65758174012, 1, 0.0147999996692, 15.0, 0.0, 0.0
336863.04062, 3449336.43955, 14.9838734137, 0.170000001788, 1.04277133583, 0.0, 0.0, 1600653221.5017, -2.65758344621, 1, 0.0164999996871, 15.0, 0.0, 0.0
336863.035769, 3449336.43697, 14.9838358011, 0.170000001788, 1.0421706299, 0.0, 0.0, 1600653221.5115, -2.65761163187, 1, 0.018199999705, 15.0, 0.0, 0.0
336863.030819, 3449336.43436, 14.9838049673, 0.170000001788, 1.0803619793, 0.0, 0.0, 1600653221.5216, -2.6576069341, 1, 0.0198999997228, 15.0, 0.0, 0.0
336863.025769, 3449336.43171, 14.9837837432, 0.170000001788, 1.02665214309, 0.0, 0.0, 1600653221.5317, -2.65762657118, 1, 0.0215999997407, 15.0, 0.0, 0.0
336863.020625, 3449336.42902, 14.9837742713, 0.170000001788, 1.02814230291, 0.0, 0.0, 1600653221.5417, -2.65763758599, 1, 0.0232999997586, 15.0, 0.0, 0.0
336863.01539, 3449336.42629, 14.9837773291, 0.219999998808, 0.972207564691, 0.0, 0.0, 1600653221.5515, -2.65766362453, 1, 0.0254999997467, 15.0, 0.0, 0.0
336863.010061, 3449336.42353, 14.9837980267, 0.219999998808, 0.998375183946, 0.0, 0.0, 1600653221.5614, -2.65766110994, 1, 0.0276999997348, 15.0, 0.0, 0.0
336863.00464, 3449336.42074, 14.9838386913, 0.219999998808, 0.952453663428, 0.0, 0.0, 1600653221.5716, -2.65769016652, 1, 0.0298999997228, 15.0, 0.0, 0.0
336862.999129, 3449336.41791, 14.9838932586, 0.219999998808, 0.921379138427, 0.0, 0.0, 1600653221.5815, -2.65770550826, 1, 0.0320999997109, 15.0, 0.0, 0.0
336862.993527, 3449336.41506, 14.9839535487, 0.219999998808, 0.959823605348, 0.0, 0.0, 1600653221.5917, -2.65770493068, 1, 0.034299999699, 15.0, 0.0, 0.0
336862.987839, 3449336.41217, 14.9840088624, 0.219999998808, 0.884842491408, 0.0, 0.0, 1600653221.6018, -2.65772355959, 1, 0.0364999996871, 15.0, 0.0, 0.0
336862.982072, 3449336.40925, 14.9840525185, 0.219999998808, 0.88344497408, 0.0, 0.0, 1600653221.6114, -2.65774334224, 1, 0.0386999996752, 15.0, 0.0, 0.0
336862.976226, 3449336.40628, 14.984087391, 0.280000001192, 0.861981741009, 0.0, 0.0, 1600653221.6215, -2.6577757504, 1, 0.0414999996871, 13.0, 0.0, 0.0
336862.970207, 3449336.40327, 14.9841003755, 0.280000001192, 0.843948017891, 0.0, 0.0, 1600653221.6316, -2.65779008135, 1, 0.044299999699, 13.0, 0.0, 0.0
336862.964115, 3449336.40021, 14.9840980105, 0.280000001192, 0.838783838162, 0.0, 0.0, 1600653221.6414, -2.65783941821, 1, 0.0470999997109, 13.0, 0.0, 0.0
336862.957957, 3449336.39711, 14.9840748211, 0.280000001192, 0.735349654511, 0.0, 0.0, 1600653221.6517, -2.65787605391, 1, 0.0498999997228, 13.0, 0.0, 0.0
336862.951741, 3449336.39396, 14.98403941, 0.340000003576, 0.743637639686, 0.0, 0.0, 1600653221.6616, -2.65793307819, 1, 0.0532999997586, 10.0, 0.0, 0.0
336862.945469, 3449336.39075, 14.9840049766, 0.340000003576, 0.74530114791, 0.0, 0.0, 1600653221.6716, -2.65799101115, 1, 0.0566999997944, 10.0, 0.0, 0.0
336862.939138, 3449336.3875, 14.9839738093, 0.340000003576, 0.738300842722, 0.0, 0.0, 1600653221.6815, -2.65805846739, 1, 0.0600999998301, 10.0, 0.0, 0.0
336862.932745, 3449336.38421, 14.9839485768, 0.340000003576, 0.71636282092, 0.0, 0.0, 1600653221.6916, -2.65811297747, 1, 0.0634999998659, 10.0, 0.0, 0.0
336862.926297, 3449336.38088, 14.9839220429, 0.40000000596, 0.598540120596, 0.0, 0.0, 1600653221.7016, -2.6581589678, 1, 0.0674999999255, 10.0, 0.0, 0.0
336862.9198, 3449336.37751, 14.9838979848, 0.40000000596, 0.641800646799, 0.0, 0.0, 1600653221.7115, -2.65820099018, 1, 0.0714999999851, 10.0, 0.0, 0.0
336862.913252, 3449336.37411, 14.9838805869, 0.40000000596, 0.546008941855, 0.0, 0.0, 1600653221.7215, -2.65820254493, 1, 0.0755000000447, 10.0, 0.0, 0.0
336862.906655, 3449336.37069, 14.9838659012, 0.40000000596, 0.577159975549, 0.0, 0.0, 1600653221.7316, -2.65820725399, 1, 0.0795000001043, 10.0, 0.0, 0.0
336862.900009, 3449336.36724, 14.9838473926, 0.449999988079, 0.50933892363, 0.0, 0.0, 1600653221.7415, -2.65820454885, 1, 0.0839999999851, 10.0, 0.0, 0.0
336862.893316, 3449336.36377, 14.9838125019, 0.449999988079, 0.507430907857, 0.0, 0.0, 1600653221.7515, -2.6582041508, 1, 0.0884999998659, 10.0, 0.0, 0.0
336862.886579, 3449336.36027, 14.9837559794, 0.449999988079, 0.495569342806, 0.0, 0.0, 1600653221.7615, -2.65818916776, 1, 0.0929999997467, 10.0, 0.0, 0.0
336862.879799, 3449336.35675, 14.9836769793, 0.449999988079, 0.490655573157, 0.0, 0.0, 1600653221.7715, -2.65820702882, 1, 0.0974999996275, 10.0, 0.0, 0.0
336862.87297, 3449336.35321, 14.9835725928, 0.449999988079, 0.550857868914, 0.0, 0.0, 1600653221.7817, -2.65819324355, 1, 0.101999999508, 10.0, 0.0, 0.0
336862.866091, 3449336.34965, 14.9834394614, 0.449999988079, 0.486339334685, 0.0, 0.0, 1600653221.7916, -2.65819633504, 1, 0.106499999389, 10.0, 0.0, 0.0
336862.859169, 3449336.34607, 14.9832797506, 0.449999988079, 0.506191594481, 0.0, 0.0, 1600653221.8016, -2.65819241141, 1, 0.11099999927, 10.0, 0.0, 0.0
336862.852202, 3449336.34246, 14.9831060312, 0.449999988079, 0.540231796545, 0.0, 0.0, 1600653221.8115, -2.65820856391, 1, 0.115499999151, 10.0, 0.0, 0.0
336862.845186, 3449336.33882, 14.9829362488, 0.509999990463, 0.611298193657, 0.0, 0.0, 1600653221.8216, -2.65823649105, 1, 0.120599999055, 10.0, 0.0, 0.0
336862.838121, 3449336.33514, 14.9827785901, 0.509999990463, 0.564772212461, 0.0, 0.0, 1600653221.8320, -2.65828954833, 1, 0.12569999896, 10.0, 0.0, 0.0
336862.831007, 3449336.33144, 14.9826371919, 0.509999990463, 0.573717529284, 0.0, 0.0, 1600653221.8417, -2.65834130266, 1, 0.130799998865, 10.0, 0.0, 0.0
336862.823843, 3449336.3277, 14.9825228012, 0.509999990463, 0.618607575503, 0.0, 0.0, 1600653221.8517, -2.65835694741, 1, 0.135899998769, 10.0, 0.0, 0.0
336862.81663, 3449336.32393, 14.982435911, 0.560000002384, 0.584874195, 0.0, 0.0, 1600653221.8616, -2.65838940845, 1, 0.141499998793, 10.0, 0.0, 0.0
336862.809369, 3449336.32014, 14.9823675109, 0.560000002384, 0.531541611757, 0.0, 0.0, 1600653221.8716, -2.65840802514, 1, 0.147099998817, 10.0, 0.0, 0.0
336862.802056, 3449336.31632, 14.9823102246, 0.560000002384, 0.559134497224, 0.0, 0.0, 1600653221.8817, -2.65840760508, 1, 0.152699998841, 10.0, 0.0, 0.0
336862.79469, 3449336.31248, 14.9822634541, 0.560000002384, 0.546289418916, 0.0, 0.0, 1600653221.8916, -2.65837679606, 1, 0.158299998865, 10.0, 0.0, 0.0
336862.787273, 3449336.30863, 14.9822301764, 0.610000014305, 0.547903841943, 0.0, 0.0, 1600653221.9017, -2.65836065684, 1, 0.164399999008, 10.0, 0.0, 0.0
336862.779809, 3449336.30476, 14.9821972472, 0.610000014305, 0.450044969559, 0.0, 0.0, 1600653221.9115, -2.6583234587, 1, 0.170499999151, 10.0, 0.0, 0.0
336862.772296, 3449336.30087, 14.9821607755, 0.610000014305, 0.540102261336, 0.0, 0.0, 1600653221.9215, -2.65830313698, 1, 0.176599999294, 10.0, 0.0, 0.0
336862.76474, 3449336.29699, 14.9821484822, 0.610000014305, 0.440155680141, 0.0, 0.0, 1600653221.9315, -2.65826699464, 1, 0.182699999437, 10.0, 0.0, 0.0
336862.757138, 3449336.29309, 14.982136166, 0.660000026226, 0.492564255622, 0.0, 0.0, 1600653221.9417, -2.65825727505, 1, 0.189299999699, 9.0, 0.0, 0.0
336862.749494, 3449336.28919, 14.9821084839, 0.660000026226, 0.389984121792, 0.0, 0.0, 1600653221.9519, -2.6582827109, 1, 0.195899999961, 9.0, 0.0, 0.0
336862.741812, 3449336.28526, 14.9820556973, 0.660000026226, 0.40586400335, 0.0, 0.0, 1600653221.9615, -2.6583072678, 1, 0.202500000224, 9.0, 0.0, 0.0
336862.734089, 3449336.28132, 14.9819909195, 0.660000026226, 0.462800956778, 0.0, 0.0, 1600653221.9716, -2.65835851769, 1, 0.209100000486, 9.0, 0.0, 0.0
336862.726328, 3449336.27736, 14.9819240218, 0.660000026226, 0.421436300873, 0.0, 0.0, 1600653221.9816, -2.65845175394, 1, 0.215700000748, 9.0, 0.0, 0.0
336862.718527, 3449336.27337, 14.9818586693, 0.660000026226, 0.508658382834, 0.0, 0.0, 1600653221.9915, -2.65855991402, 1, 0.22230000101, 9.0, 0.0, 0.0
336862.710682, 3449336.26936, 14.9817927495, 0.660000026226, 0.472579558718, 0.0, 0.0, 1600653222.0017, -2.65869225907, 1, 0.228900001273, 9.0, 0.0, 0.0
336862.702792, 3449336.26533, 14.9817321118, 0.660000026226, 0.575567987775, 0.0, 0.0, 1600653222.0126, -2.65882222524, 1, 0.235500001535, 9.0, 0.0, 0.0
336862.694858, 3449336.26127, 14.9816855017, 0.699999988079, 0.448301878125, 0.0, 0.0, 1600653222.0217, -2.65893391534, 1, 0.242500001416, 8.0, 0.0, 0.0
336862.68689, 3449336.25718, 14.9816522889, 0.699999988079, 0.427073892909, 0.0, 0.0, 1600653222.0315, -2.65904871179, 1, 0.249500001296, 8.0, 0.0, 0.0
336862.678888, 3449336.25306, 14.9816258346, 0.699999988079, 0.421231278507, 0.0, 0.0, 1600653222.0417, -2.65918142756, 1, 0.256500001177, 8.0, 0.0, 0.0
336862.670855, 3449336.24892, 14.9816016591, 0.699999988079, 0.31392801354, 0.0, 0.0, 1600653222.0515, -2.65927594934, 1, 0.263500001058, 8.0, 0.0, 0.0
336862.662796, 3449336.24477, 14.9815839412, 0.740000009537, 0.303518654522, 0.0, 0.0, 1600653222.0614, -2.65937686939, 1, 0.270900001153, 8.0, 0.0, 0.0
336862.654715, 3449336.2406, 14.981566817, 0.740000009537, 0.266381877841, 0.0, 0.0, 1600653222.0715, -2.6594683908, 1, 0.278300001249, 8.0, 0.0, 0.0
336862.646608, 3449336.23641, 14.9815422337, 0.740000009537, 0.331958034355, 0.0, 0.0, 1600653222.0817, -2.65951232695, 1, 0.285700001344, 8.0, 0.0, 0.0
336862.638477, 3449336.2322, 14.9815117328, 0.740000009537, 0.275297019949, 0.0, 0.0, 1600653222.0916, -2.65955331846, 1, 0.293100001439, 8.0, 0.0, 0.0
336862.630327, 3449336.22797, 14.9814785802, 0.769999980927, 0.229153201497, 0.0, 0.0, 1600653222.1016, -2.65956569374, 1, 0.300800001249, 8.0, 0.0, 0.0
336862.622154, 3449336.22373, 14.981450025, 0.769999980927, 0.371878946793, 0.0, 0.0, 1600653222.1116, -2.65958029332, 1, 0.308500001058, 8.0, 0.0, 0.0
336862.613958, 3449336.21945, 14.9814120285, 0.769999980927, 0.2542938469, 0.0, 0.0, 1600653222.1217, -2.65959059199, 1, 0.316200000867, 8.0, 0.0, 0.0
336862.605739, 3449336.21516, 14.9813542288, 0.769999980927, 0.350336090572, 0.0, 0.0, 1600653222.1315, -2.65958092726, 1, 0.323900000677, 8.0, 0.0, 0.0
336862.597494, 3449336.21084, 14.9812833948, 0.800000011921, 0.318930498087, 0.0, 0.0, 1600653222.1414, -2.65959535226, 1, 0.331900000796, 8.0, 0.0, 0.0
336862.589222, 3449336.20649, 14.9811986139, 0.800000011921, 0.43601213206, 0.0, 0.0, 1600653222.1516, -2.65960538528, 1, 0.339900000915, 8.0, 0.0, 0.0
336862.580916, 3449336.20212, 14.9811012561, 0.800000011921, 0.365988728773, 0.0, 0.0, 1600653222.1614, -2.65960778535, 1, 0.347900001034, 8.0, 0.0, 0.0
336862.57258, 3449336.19773, 14.9809874472, 0.800000011921, 0.351118952453, 0.0, 0.0, 1600653222.1716, -2.65960068016, 1, 0.355900001153, 8.0, 0.0, 0.0
336862.56422, 3449336.19331, 14.9808705469, 0.800000011921, 0.353005676075, 0.0, 0.0, 1600653222.1816, -2.65958911916, 1, 0.363900001273, 8.0, 0.0, 0.0
336862.555832, 3449336.18886, 14.9807749728, 0.800000011921, 0.355563769934, 0.0, 0.0, 1600653222.1916, -2.65963275934, 1, 0.371900001392, 8.0, 0.0, 0.0
336862.547414, 3449336.1844, 14.9807011467, 0.800000011921, 0.298289571546, 0.0, 0.0, 1600653222.2017, -2.65963895595, 1, 0.379900001511, 8.0, 0.0, 0.0
336862.538968, 3449336.17993, 14.9806594584, 0.800000011921, 0.307891309322, 0.0, 0.0, 1600653222.2115, -2.65965055191, 1, 0.38790000163, 8.0, 0.0, 0.0
336862.530495, 3449336.17545, 14.9806584144, 0.829999983311, 0.324875905833, 0.0, 0.0, 1600653222.2216, -2.65968109902, 1, 0.396200001463, 9.0, 0.0, 0.0
336862.521993, 3449336.17095, 14.9807070493, 0.829999983311, 0.335454149706, 0.0, 0.0, 1600653222.2318, -2.65971914168, 1, 0.404500001296, 9.0, 0.0, 0.0
336862.51346, 3449336.16645, 14.9808029713, 0.829999983311, 0.302133224338, 0.0, 0.0, 1600653222.2416, -2.65974545572, 1, 0.41280000113, 9.0, 0.0, 0.0
336862.504891, 3449336.16194, 14.9809300098, 0.829999983311, 0.370908697387, 0.0, 0.0, 1600653222.2517, -2.65977589541, 1, 0.421100000963, 9.0, 0.0, 0.0
336862.496286, 3449336.15743, 14.9810828597, 0.850000023842, 0.382077759948, 0.0, 0.0, 1600653222.2615, -2.65977570696, 1, 0.429600001201, 9.0, 0.0, 0.0
336862.487648, 3449336.1529, 14.9812408531, 0.850000023842, 0.286749843915, 0.0, 0.0, 1600653222.2715, -2.65979345279, 1, 0.438100001439, 9.0, 0.0, 0.0
336862.478973, 3449336.14837, 14.9813982358, 0.850000023842, 0.409217372077, 0.0, 0.0, 1600653222.2815, -2.65980490582, 1, 0.446600001678, 9.0, 0.0, 0.0
336862.470253, 3449336.14384, 14.9815570602, 0.850000023842, 0.435117926487, 0.0, 0.0, 1600653222.2916, -2.65981843786, 1, 0.455100001916, 9.0, 0.0, 0.0
336862.461492, 3449336.1393, 14.9817154627, 0.879999995232, 0.38815828032, 0.0, 0.0, 1600653222.3018, -2.6598298727, 1, 0.463900001869, 9.0, 0.0, 0.0
336862.452689, 3449336.13476, 14.9818665925, 0.879999995232, 0.354832835181, 0.0, 0.0, 1600653222.3116, -2.65985713945, 1, 0.472700001821, 9.0, 0.0, 0.0
336862.443842, 3449336.13021, 14.9820092367, 0.879999995232, 0.428273107339, 0.0, 0.0, 1600653222.3217, -2.65982950746, 1, 0.481500001773, 9.0, 0.0, 0.0
336862.434951, 3449336.12567, 14.9821555451, 0.879999995232, 0.366908259389, 0.0, 0.0, 1600653222.3315, -2.65984197148, 1, 0.490300001726, 9.0, 0.0, 0.0
336862.426023, 3449336.12113, 14.9823021927, 0.899999976158, 0.308950254979, 0.0, 0.0, 1600653222.3415, -2.65985350646, 1, 0.499300001487, 8.0, 0.0, 0.0
336862.417064, 3449336.11658, 14.9824380009, 0.899999976158, 0.270377907061, 0.0, 0.0, 1600653222.3517, -2.65983752834, 1, 0.508300001249, 8.0, 0.0, 0.0
336862.408077, 3449336.11203, 14.9825605331, 0.899999976158, 0.254317226127, 0.0, 0.0, 1600653222.3616, -2.65985246969, 1, 0.51730000101, 8.0, 0.0, 0.0
336862.399067, 3449336.10747, 14.9826771956, 0.899999976158, 0.246028224168, 0.0, 0.0, 1600653222.3716, -2.65986544205, 1, 0.526300000772, 8.0, 0.0, 0.0
336862.390035, 3449336.1029, 14.9827788181, 0.899999976158, 0.254951729866, 0.0, 0.0, 1600653222.3817, -2.65990694507, 1, 0.535300000533, 6.0, 0.0, 0.0
336862.380978, 3449336.09832, 14.9828531491, 0.899999976158, 0.270117042158, 0.0, 0.0, 1600653222.3916, -2.65994962998, 1, 0.544300000295, 6.0, 0.0, 0.0
336862.371902, 3449336.09372, 14.9828944914, 0.899999976158, 0.224419116743, 0.0, 0.0, 1600653222.4016, -2.65999793307, 1, 0.553300000057, 6.0, 0.0, 0.0
336862.362813, 3449336.0891, 14.9828935512, 0.899999976158, 0.176404974896, 0.0, 0.0, 1600653222.4116, -2.66007198572, 1, 0.562299999818, 6.0, 0.0, 0.0
336862.353708, 3449336.08446, 14.9828605387, 0.920000016689, 0.269985140059, 0.0, 0.0, 1600653222.4218, -2.66014399592, 1, 0.571499999985, 6.0, 0.0, 0.0
336862.344586, 3449336.0798, 14.9828139122, 0.920000016689, 0.223471562098, 0.0, 0.0, 1600653222.4319, -2.66027319016, 1, 0.580700000152, 6.0, 0.0, 0.0
336862.335444, 3449336.07512, 14.9827559796, 0.920000016689, 0.275202417524, 0.0, 0.0, 1600653222.4415, -2.66034375264, 1, 0.589900000319, 6.0, 0.0, 0.0
336862.326282, 3449336.07042, 14.9826809432, 0.920000016689, 0.251336056684, 0.0, 0.0, 1600653222.4517, -2.66045250387, 1, 0.599100000486, 6.0, 0.0, 0.0
336862.317096, 3449336.06571, 14.9825926163, 0.939999997616, 0.341537105767, 0.0, 0.0, 1600653222.4617, -2.66052406943, 1, 0.608500000462, 6.0, 0.0, 0.0
336862.307886, 3449336.06098, 14.9824998709, 0.939999997616, 0.24602629429, 0.0, 0.0, 1600653222.4715, -2.66061013269, 1, 0.617900000438, 6.0, 0.0, 0.0
336862.298651, 3449336.05623, 14.9824024954, 0.939999997616, 0.345828791719, 0.0, 0.0, 1600653222.4820, -2.66067392696, 1, 0.627300000414, 6.0, 0.0, 0.0
336862.289389, 3449336.05145, 14.9822960354, 0.939999997616, 0.340038639906, 0.0, 0.0, 1600653222.4916, -2.66073339935, 1, 0.63670000039, 6.0, 0.0, 0.0
336862.278321, 3449336.04723, 14.98386723, 0.959999978542, 0.263154033194, 0.0, 0.0, 1600653222.5015, -2.6607743436, 1, 0.646300000176, 6.0, 0.0, 0.0
336862.268851, 3449336.04243, 14.9838351901, 0.959999978542, 0.2996342808, 0.0, 0.0, 1600653222.5114, -2.66075845823, 1, 0.655899999961, 6.0, 0.0, 0.0
336862.259804, 3449336.03798, 14.9849914533, 0.959999978542, 0.319585883199, 0.0, 0.0, 1600653222.5214, -2.66041656413, 1, 0.665499999747, 6.0, 0.0, 0.0
336862.250277, 3449336.03313, 14.9849682478, 0.959999978542, 0.276223071672, 0.0, 0.0, 1600653222.5315, -2.66038373137, 1, 0.675099999532, 6.0, 0.0, 0.0
336862.240726, 3449336.02827, 14.9849623127, 0.980000019073, 0.23485537742, 0.0, 0.0, 1600653222.5417, -2.66037241284, 1, 0.684899999723, 6.0, 0.0, 0.0
336862.231154, 3449336.0234, 14.984967221, 0.980000019073, 0.260540097641, 0.0, 0.0, 1600653222.5515, -2.66037458426, 1, 0.694699999914, 6.0, 0.0, 0.0
336862.221559, 3449336.01851, 14.9849711798, 0.980000019073, 0.26668847926, 0.0, 0.0, 1600653222.5616, -2.66034519669, 1, 0.704500000104, 6.0, 0.0, 0.0
336862.211942, 3449336.01362, 14.984959358, 0.980000019073, 0.209087722772, 0.0, 0.0, 1600653222.5717, -2.66034880937, 1, 0.714300000295, 6.0, 0.0, 0.0
336862.202306, 3449336.00871, 14.9849367409, 0.980000019073, 0.245704222064, 0.0, 0.0, 1600653222.5817, -2.66037571351, 1, 0.724100000486, 6.0, 0.0, 0.0
